n,      F(n),      G(n),      ATg_FG,      ATg_GF,      pi,      Delta,      Theta,      O_large 

20.0000000000        14654.2950973426     	 15120.6459854454    	 0.7697369146         0.8010594122         -0.0313224975        0.2058554227         -0.1432104277        0.1432104277        
20.1000000000        15666.9660197101     	 15866.0273010889    	 0.7790854536         0.7917108732         -0.0126254197        0.1871583449         -0.1619075055        0.1619075055        
20.2000000000        16749.8238849658     	 16648.1526358865    	 0.7884423878         0.7823539390         0.0060884488         0.1684444764         -0.1684444764        0.1806213740        
20.3000000000        17907.7453633450     	 17468.8333083072    	 0.7978043811         0.7729919457         0.0248124354         0.1497204898         -0.1497204898        0.1993453606        
20.4000000000        19145.9466832837     	 18329.9699268510    	 0.8071680872         0.7636282396         0.0435398475         0.1309930777         -0.1309930777        0.2180727727        
20.5000000000        20470.0073182635     	 19233.5567916539    	 0.8165301555         0.7542661713         0.0622639842         0.1122689410         -0.1122689410        0.2367969094        
20.6000000000        21885.8953286813     	 20181.6865130737    	 0.8258872375         0.7449090893         0.0809781483         0.0935547769         -0.0935547769        0.2555110735        
20.7000000000        23399.9944745502     	 21176.5548579513    	 0.8352359924         0.7355603344         0.0996756581         0.0748572671         -0.0748572671        0.2742085833        
20.8000000000        25019.1332229488     	 22220.4658347714    	 0.8445730931         0.7262232337         0.1183498594         0.0561830658         -0.0561830658        0.2928827846        
20.9000000000        26750.6157828200     	 23315.8370294993    	 0.8538952320         0.7169010948         0.1369941372         0.0375387880         -0.0375387880        0.3115270624        
21.0000000000        28602.2553090123     	 24465.2052044508    	 0.8631991269         0.7075971999         0.1556019271         0.0189309981         -0.0189309981        0.3301348523        
21.1000000000        30582.4094273995     	 25671.2321731620    	 0.8724815268         0.6983148000         0.1741667269         0.0003661983         -0.0003661983        0.3486996521        
21.2000000000        32700.0182435556     	 26936.7109648645    	 0.8817392171         0.6890571097         0.1926821075         -0.0181491823        0.0181491823         0.3672150327        
21.3000000000        34964.6450088497     	 28264.5722928413    	 0.8909690253         0.6798273015         0.2111417239         -0.0366087987        0.0366087987         0.3856746491        
21.4000000000        37386.5196300131     	 29657.8913416451    	 0.9001678260         0.6706285008         0.2295393252         -0.0550064000        0.0550064000         0.4040722504        
21.5000000000        39976.5852212709     	 31119.8948888962    	 0.9093325460         0.6614637808         0.2478687653         -0.0733358401        0.0733358401         0.4224016905        
21.6000000000        42746.5479120890     	 32653.9687781535    	 0.9184601693         0.6523361575         0.2661240118         -0.0915910866        0.0915910866         0.4406569370        
21.7000000000        45708.9301385243     	 34263.6657601655    	 0.9275477412         0.6432485856         0.2842991556         -0.1097662304        0.1097662304         0.4588320808        
21.8000000000        48877.1276621483     	 35952.7137206604    	 0.9365923732         0.6342039536         0.3023884196         -0.1278554944        0.1278554944         0.4769213448        
21.9000000000        52265.4705776246     	 37725.0243137301    	 0.9455912466         0.6252050802         0.3203861664         -0.1458532412        0.1458532412         0.4949190916        
22.0000000000        55889.2885883262     	 39584.7020208016    	 0.9545416166         0.6162547102         0.3382869064         -0.1637539812        0.1637539812         0.5128198316        
22.1000000000        59764.9808489719     	 41536.0536561764    	 0.9634408157         0.6073555111         0.3560853045         -0.1815523793        0.1815523793         0.5306182297        
22.2000000000        63910.0906952299     	 43583.5983411511    	 0.9722862569         0.5985100699         0.3737761869         -0.1992432617        0.1992432617         0.5483091121        
22.3000000000        68343.3856026765     	 45732.0779698175    	 0.9810754367         0.5897208901         0.3913545465         -0.2168216213        0.2168216213         0.5658874717        
22.4000000000        73084.9427415153     	 47986.4681907822    	 0.9898059377         0.5809903891         0.4088155486         -0.2342826234        0.2342826234         0.5833484738        
22.5000000000        78156.2405191625     	 50351.9899302344    	 0.9984754310         0.5723208958         0.4261545352         -0.2516216100        0.2516216100         0.6006874604        
22.6000000000        83580.2565303130     	 52834.1214830527    	 1.0070816782         0.5637146486         0.4433670297         -0.2688341045        0.2688341045         0.6178999549        
22.7000000000        89381.5723635409     	 55438.6111999481    	 1.0156225331         0.5551737937         0.4604487394         -0.2859158142        0.2859158142         0.6349816646        
22.8000000000        95586.4857449931     	 58171.4908000289    	 1.0240959432         0.5467003836         0.4773955596         -0.3028626344        0.3028626344         0.6519284848        
22.9000000000        102223.1305334557    	 61039.0893396157    	 1.0324999507         0.5382963761         0.4942035746         -0.3196706494        0.3196706494         0.6687364998        
23.0000000000        109321.6051171588    	 64048.0478696574    	 1.0408326936         0.5299636332         0.5108690605         -0.3363361353        0.3363361353         0.6854019857        
23.1000000000        116914.1098013105    	 67205.3348156939    	 1.0490924062         0.5217039205         0.5273884857         -0.3528555605        0.3528555605         0.7019214109        
23.2000000000        125035.0938166833    	 70518.2621159829    	 1.0572774194         0.5135189074         0.5437585119         -0.3692255867        0.3692255867         0.7182914371        
23.3000000000        133721.4126238183    	 73994.5021551653    	 1.0653861604         0.5054101663         0.5599759941         -0.3854430689        0.3854430689         0.7345089193        
23.4000000000        143012.4962347590    	 77642.1055326861    	 1.0734171534         0.4973791734         0.5760379799         -0.4015050547        0.4015050547         0.7505709051        
23.5000000000        152950.5293249014    	 81469.5197071198    	 1.0813690180         0.4894273088         0.5919417092         -0.4174087840        0.4174087840         0.7664746344        
23.6000000000        163580.6439617813    	 85485.6085595798    	 1.0892404695         0.4815558573         0.6076846122         -0.4331516870        0.4331516870         0.7822175374        
23.7000000000        174951.1258356659    	 89699.6729215166    	 1.0970303176         0.4737660092         0.6232643084         -0.4487313832        0.4487313832         0.7977972336        
23.8000000000        187113.6349389414    	 94121.4721144475    	 1.1047374652         0.4660588616         0.6386786037         -0.4641456785        0.4641456785         0.8132115289        
23.9000000000        200123.4417077790    	 98761.2465514989    	 1.1123609075         0.4584354193         0.6539254883         -0.4793925631        0.4793925631         0.8284584135        
24.0000000000        214039.6797107260    	 103629.7414531064   	 1.1198997302         0.4508965966         0.6690031336         -0.4944702084        0.4944702084         0.8435360588        
24.1000000000        228925.6160450325    	 108738.2317317935   	 1.1273531080         0.4434432188         0.6839098892         -0.5093769640        0.5093769640         0.8584428144        
24.2000000000        244848.9406830438    	 114098.5481036612   	 1.1347203030         0.4360760238         0.6986442793         -0.5241113541        0.5241113541         0.8731772045        
24.3000000000        261882.0760982394    	 119723.1044870583   	 1.1420006627         0.4287956641         0.7132049986         -0.5386720734        0.5386720734         0.8877379238        
24.4000000000        280102.5085938776    	 125624.9267518869   	 1.1491936178         0.4216027090         0.7275909089         -0.5530579837        0.5530579837         0.9021238341        
24.5000000000        299593.1428571558    	 131817.6828861208   	 1.1562986805         0.4144976463         0.7418010342         -0.5672681090        0.5672681090         0.9163339594        
24.6000000000        320442.6813687685    	 138315.7146494011   	 1.1633154419         0.4074808849         0.7558345569         -0.5813016317        0.5813016317         0.9303674821        
24.7000000000        342746.0304122394    	 145134.0707870149   	 1.1702435698         0.4005527569         0.7696908129         -0.5951578877        0.5951578877         0.9442237381        
24.8000000000        366604.7345499503    	 152288.5418811771   	 1.1770828067         0.3937135200         0.7833692867         -0.6088363615        0.6088363615         0.9579022119        
24.9000000000        392127.4415639512    	 159795.6969203264   	 1.1838329669         0.3869633599         0.7968696070         -0.6223366818        0.6223366818         0.9714025322        
25.0000000000        419430.4000000201    	 167672.9216711274   	 1.1904939341         0.3803023927         0.8101915414         -0.6356586162        0.6356586162         0.9847244666        
25.1000000000        448637.9916037021    	 175938.4589420432   	 1.1970656592         0.3737306676         0.8233349917         -0.6488020665        0.6488020665         0.9978679169        
25.2000000000        479883.3010978780    	 184611.4508317250   	 1.2035481577         0.3672481691         0.8362999885         -0.6617670633        0.6617670633         1.0108329137        
25.3000000000        513308.7259235513    	 193711.9830600616   	 1.2099415067         0.3608548201         0.8490866867         -0.6745537615        0.6745537615         1.0236196119        
25.4000000000        549066.6287497870    	 203261.1314845544   	 1.2162458432         0.3545504836         0.8616953596         -0.6871624344        0.6871624344         1.0362282848        
25.5000000000        587320.0357559327    	 213281.0109097449   	 1.2224613607         0.3483349661         0.8741263945         -0.6995934693        0.6995934693         1.0486593197        
25.6000000000        628243.3839003347    	 223794.8263027324   	 1.2285883071         0.3422080197         0.8863802874         -0.7118473622        0.7118473622         1.0609132126        
25.7000000000        672023.3206156778    	 234826.9265333917   	 1.2346269824         0.3361693444         0.8984576379         -0.7239247127        0.7239247127         1.0729905631        
25.8000000000        718859.5596128964    	 246402.8607637462   	 1.2405777355         0.3302185913         0.9103591443         -0.7358262191        0.7358262191         1.0848920695        
25.9000000000        768965.7967344350    	 258549.4376170899   	 1.2464409626         0.3243553642         0.9220855984         -0.7475526732        0.7475526732         1.0966185236        
26.0000000000        822570.6900746730    	 271294.7872638860   	 1.2522171041         0.3185792227         0.9336378813         -0.7591049561        0.7591049561         1.1081708065        
26.1000000000        879918.9088818625    	 284668.4265682278   	 1.2579066424         0.3128896844         0.9450169579         -0.7704840327        0.7704840327         1.1195498831        
26.2000000000        941272.2560733242    	 298701.3274457331   	 1.2635100997         0.3072862271         0.9562238726         -0.7816909474        0.7816909474         1.1307567978        
26.3000000000        1006910.8695353831   	 313425.9885911819   	 1.2690280357         0.3017682911         0.9672597446         -0.7927268194        0.7927268194         1.1417926698        
26.4000000000        1077134.5077431574   	 328876.5107420114   	 1.2744610451         0.2963352817         0.9781257634         -0.8035928382        0.8035928382         1.1526586886        
26.5000000000        1152263.9256245559   	 345088.6756519696   	 1.2798097556         0.2909865712         0.9888231845         -0.8142902593        0.8142902593         1.1633561097        
26.6000000000        1232642.3470094551   	 362100.0289578236   	 1.2850748259         0.2857215008         0.9993533251         -0.8248203999        0.8248203999         1.1738862503        
26.7000000000        1318637.0404509797   	 379949.9671310304   	 1.2902569434         0.2805393834         1.0097175599         -0.8351846347        0.8351846347         1.1842504851        
26.8000000000        1410641.0056831480   	 398679.8287157441   	 1.2953568220         0.2754395048         1.0199173172         -0.8453843920        0.8453843920         1.1944502424        
26.9000000000        1509074.7784900796   	 418332.9900644543   	 1.3003752007         0.2704211260         1.0299540747         -0.8554211495        0.8554211495         1.2044869999        
27.0000000000        1614388.3623088577   	 438954.9657929705   	 1.3053128415         0.2654834853         1.0398293562         -0.8652964310        0.8652964310         1.2143622814        
27.1000000000        1727063.2954735581   	 460593.5141873958   	 1.3101705271         0.2606257997         1.0495447274         -0.8750118022        0.8750118022         1.2240776526        
27.2000000000        1847614.8636345528   	 483298.7478071995   	 1.3149490599         0.2558472669         1.0591017931         -0.8845688679        0.8845688679         1.2336347183        
27.3000000000        1976594.4675579444   	 507123.2495405359   	 1.3196492599         0.2511470669         1.0685021929         -0.8939692677        0.8939692677         1.2430351181        
27.4000000000        2114592.1572279250   	 532122.1943805780   	 1.3242719628         0.2465243640         1.0777475989         -0.9032146737        0.9032146737         1.2522805241        
27.5000000000        2262239.3439433840   	 558353.4772048907   	 1.3288180192         0.2419783076         1.0868397117         -0.9123067865        0.9123067865         1.2613726369        
27.6000000000        2420211.7029226772   	 585877.8468537626   	 1.3332882924         0.2375080344         1.0957802581         -0.9212473329        0.9212473329         1.2703131833        
27.7000000000        2589232.2798110549   	 614759.0468180114   	 1.3376836573         0.2331126695         1.1045709878         -0.9300380626        0.9300380626         1.2791039130        
27.8000000000        2770074.8154277625   	 645063.9628620785   	 1.3420049988         0.2287913280         1.1132136708         -0.9386807456        0.9386807456         1.2877465960        
27.9000000000        2963567.3040987905   	 676862.7779242917   	 1.3462532108         0.2245431160         1.1217100949         -0.9471771697        0.9471771697         1.2962430201        
28.0000000000        3170595.8020012309   	 710229.1346530312   	 1.3504291948         0.2203671320         1.1300620628         -0.9555291376        0.9555291376         1.3045949880        
28.1000000000        3392108.5031012385   	 745240.3059552115   	 1.3545338584         0.2162624684         1.1382713901         -0.9637384649        0.9637384649         1.3128043153        
28.2000000000        3629120.1015051035   	 781977.3739520542   	 1.3585681149         0.2122282119         1.1463399029         -0.9718069777        0.9718069777         1.3208728281        
28.3000000000        3882716.4603675487   	 820525.4177565926   	 1.3625328812         0.2082634456         1.1542694356         -0.9797365105        0.9797365105         1.3288023608        
28.4000000000        4154059.6089193574   	 860973.7105077811   	 1.3664290779         0.2043672489         1.1620618290         -0.9875289038        0.9875289038         1.3365947542        
28.5000000000        4444393.0906942356   	 903415.9261175194   	 1.3702576274         0.2005386994         1.1697189280         -0.9951860028        0.9951860028         1.3442518532        
28.6000000000        4755047.6876596063   	 947950.3562093944   	 1.3740194535         0.1967768733         1.1772425802         -1.0027096550        1.0027096550         1.3517755054        
28.7000000000        5087447.5466952510   	 994680.1377515494   	 1.3777154803         0.1930808465         1.1846346339         -1.0101017087        1.0101017087         1.3591675591        
28.8000000000        5443116.7367254738   	 1043713.4919108502  	 1.3813466316         0.1894496952         1.1918969365         -1.0173640113        1.0173640113         1.3664298617        
28.9000000000        5823686.2668034062   	 1095163.9746815115  	 1.3849138298         0.1858824969         1.1990313329         -1.0244984077        1.0244984077         1.3735642581        
29.0000000000        6230901.5975794289   	 1149150.7398686125  	 1.3884179956         0.1823783312         1.2060396643         -1.0315067391        1.0315067391         1.3805725895        
29.1000000000        6666630.6808693632   	 1205798.8150355406  	 1.3918600467         0.1789362801         1.2129237665         -1.0383908413        1.0383908413         1.3874566917        
29.2000000000        7132872.5644826740   	 1265239.3910544324  	 1.3952408978         0.1755554290         1.2196854689         -1.0451525437        1.0451525437         1.3942183941        
29.3000000000        7631766.6020878470   	 1327610.1259301761  	 1.3985614598         0.1722348669         1.2263265929         -1.0517936677        1.0517936677         1.4008595181        
29.4000000000        8165602.3106933031   	 1393055.4636015997  	 1.4018226390         0.1689736878         1.2328489513         -1.0583160261        1.0583160261         1.4073818765        
29.5000000000        8736829.9213210139   	 1461726.9684581563  	 1.4050253368         0.1657709900         1.2392543468         -1.0647214216        1.0647214216         1.4137872720        
29.6000000000        9348071.6716599707   	 1533783.6763468108  	 1.4081704491         0.1626258777         1.2455445714         -1.0710116462        1.0710116462         1.4200774966        
29.7000000000        10002133.8929229750  	 1609392.4628820179  	 1.4112588660         0.1595374608         1.2517214051         -1.0771884799        1.0771884799         1.4262543303        
29.8000000000        10702019.9468087630  	 1688728.4299117671  	 1.4142914711         0.1565048557         1.2577866153         -1.0832536901        1.0832536901         1.4323195405        
29.9000000000        11450944.0724091850  	 1771975.3110346980  	 1.4172691414         0.1535271854         1.2637419561         -1.0892090309        1.0892090309         1.4382748813        
30.0000000000        12252346.2071166360  	 1859325.8971074277  	 1.4201927470         0.1506035798         1.2695891672         -1.0950562420        1.0950562420         1.4441220924        
30.1000000000        13109907.8500994070  	 1950982.4827275181  	 1.4230631502         0.1477331766         1.2753299737         -1.1007970485        1.1007970485         1.4498628989        
30.2000000000        14027569.0417432600  	 2047157.3347260859  	 1.4258812060         0.1449151208         1.2809660851         -1.1064331599        1.1064331599         1.4554990103        
